1歳まで子いぬ用

現在の体重(kg),離乳〜3か月,4〜6か月,7〜12か月
0.5,0.4,0.4,0.3
1,0.7,0.6,0.5
1.5,0.9,0.8,0.7
2,1.2,1.0,0.8
3,1.6,1.4,1.1
4,2.0,1.7,1.4
5,2.4,2.0,1.6
6,2.7,2.3,1.9
7,3.0,2.6,2.1
8,3.4,2.8,2.3
9,3.7,3.1,2.6
10,3.9,3.4,2.8
12,4.6,3.9,3.2
15,5.4,4.6,3.8
20,-,5.6,4.6
